w1,w2,w3,mean_mae,mae_sbp,mae_dbp,rmse_sbp,rmse_dbp,bias_sbp,bias_dbp,pearson_sbp,pearson_dbp
0.5,0.30000000000000004,0.19999999999999996,10.484384801949327,12.837124558812633,8.131645045086021,16.15040512436464,10.699581815150891,-0.6449368457726978,-1.3652796010335064,0.4269582262521369,0.50062024129912
0.5,0.2,0.3,10.485258143061232,12.83943023517995,8.131086050942514,16.156382737469205,10.69544879225182,-0.658011051582001,-1.3422518223300366,0.42661347230781355,0.5009097041104046
0.4,0.3,0.3,10.485329461214086,12.84145893727377,8.129199985154399,16.153317021433374,10.69100894007417,-0.6675112808402212,-1.304619116944805,0.4268692833851974,0.5008007673096647
0.6000000000000001,0.19999999999999996,0.19999999999999996,10.485454431244218,12.836254114395926,8.134654748092512,16.155003283278685,10.705346546981966,-0.6354366165144762,-1.4029123064187374,0.4265410745706124,0.5005601869429039
0.6000000000000001,0.29999999999999993,0.09999999999999998,10.48752835180711,12.837147607252085,8.137909096362135,16.15328944305623,10.713024775730617,-0.6223624107051748,-1.425940085122208,0.42646007175832984,0.499817476531526
0.4,0.19999999999999998,0.4,10.48913636304328,12.846908255420143,8.131364470666414,16.163555131848767,10.69042913115894,-0.6805854866495183,-1.2815913382413324,0.42611382205618825,0.5006599274381135
0.4,0.39999999999999997,0.2,10.489501876683272,12.844595620538712,8.134408132827833,16.155540034246794,10.700495016059621,-0.6544370750309186,-1.3276468956482752,0.42638293040605735,0.4997921929220146
0.7000000000000001,0.19999999999999996,0.09999999999999998,10.489700254738253,12.837541556279541,8.141858953196962,16.159418252826153,10.720108883692602,-0.6128621814469533,-1.463572790507439,0.42588494552087963,0.49959535965669166
0.30000000000000004,0.3,0.39999999999999997,10.490428218270878,12.8500296675558,8.130826768985958,16.16202200136569,10.687317870182984,-0.6900857159077428,-1.243958632856103,0.4262069941960622,0.5003772489954985
0.6000000000000001,0.09999999999999998,0.29999999999999993,10.491489394824828,12.844471906288648,8.13850688336101,16.16917403712835,10.706564052958178,-0.6485108223237787,-1.3798845277152672,0.42539345486376534,0.5001720533637602
0.5,0.4,0.09999999999999998,10.4915219848375,12.84351472165591,8.13952924801909,16.156891870382168,10.712609460541872,-0.6318626399633954,-1.3883073797369765,0.4260407828951422,0.4991503248860518
0.30000000000000004,0.39999999999999997,0.3,10.491525170542626,12.849876324457147,8.133174016628104,16.159982424153633,10.693252811342811,-0.6770115100984422,-1.266986411559574,0.426138998151088,0.49980836817044894
0.7000000000000001,0.09999999999999998,0.19999999999999996,10.49276776546622,12.842493898882287,8.143041632050155,16.169326207454514,10.71777843605334,-0.6259363872562553,-1.4405450118039689,0.4251568789832817,0.49965193556773535
0.5,0.1,0.4,10.494121731899618,12.850836796480756,8.13740666731848,16.174810890600526,10.70022069864968,-0.6710852573912988,-1.3192240436265639,0.425063436624965,0.5001008211322938
0.7000000000000001,0.29999999999999993,0.0,10.494768148143919,12.841549015911403,8.147987280376434,16.161966874272256,10.73131951978306,-0.5997879756376518,-1.4866005692109094,0.4253680982645817,0.4983807617638634
0.30000000000000004,0.19999999999999998,0.5,10.496898068486045,12.858489713138852,8.135306423833239,16.17651276094171,10.690294435277778,-0.7031599217170421,-1.2209308541526311,0.42506033836522683,0.4998326949558532
0.6000000000000001,0.3999999999999999,0.0,10.49772969393505,12.846675465892789,8.14878392197731,16.16403647880583,10.72957964150573,-0.6092882048958731,-1.4489678638256784,0.4251038644186367,0.4978689976289481
0.2,0.4,0.4,10.49781667342442,12.859774364730347,8.135858982118494,16.170214264617254,10.690892748026872,-0.6995859451659575,-1.2063259274708686,0.425324639083287,0.4992191092908024
0.8,0.19999999999999996,0.0,10.497891916956618,12.842911836660507,8.152871997252728,16.169622899767038,10.739715742486853,-0.5902877463794303,-1.52423327459614,0.4246404044912955,0.4980056125297175
0.8,0.09999999999999998,0.09999999999999998,10.498068431921961,12.844709656383573,8.15142720746035,16.175267238196685,10.73384858065886,-0.6033619521887326,-1.50120549589267,0.4243441838686178,0.4985266814307746
0.2,0.30000000000000004,0.5,10.499430913482033,12.862935886835169,8.135925940128898,16.17651071196139,10.688513662987377,-0.7126601509752597,-1.1832981487673981,0.42499159735364894,0.4993737084849017
0.30000000000000004,0.49999999999999994,0.2,10.500662112626873,12.858553519884863,8.142770705368882,16.170398740720252,10.708084441197043,-0.6639373042891417,-1.2900141902630455,0.42481016608819877,0.4980488142776475
0.4,0.09999999999999999,0.5,10.500679123873116,12.861072819883507,8.140285427862723,16.186230719791038,10.698757037313934,-0.6936596924588219,-1.258563559537863,0.4241828371361578,0.49945778055729056
0.4,0.49999999999999994,0.10000000000000003,10.501748549441682,12.856603470471487,8.146893628411876,16.170219030983464,10.718863713297443,-0.6413628692216153,-1.3506746743517455,0.42461871061332324,0.49756377257728995
0.7000000000000001,0.0,0.29999999999999993,10.503749997865926,12.85650613054187,8.150993865189982,16.191667871006583,10.724333965985569,-0.6390105930655573,-1.4175172331004982,0.4232498982904784,0.498635549241029
0.2,0.5,0.30000000000000004,10.503956307600703,12.865295562797577,8.142617052403827,16.176366916637,10.702176202030886,-0.6865117393566575,-1.22935370617434,0.4244209188602638,0.49790832069844126
0.6000000000000001,0.0,0.3999999999999999,10.505389287319451,12.861877082504598,8.148901492134303,16.19576900649528,10.71667426176473,-0.6615850281330804,-1.3568567490117969,0.4230927956512439,0.49874452801055236
0.8,0.0,0.19999999999999996,10.506251062047822,12.855571587822704,8.15693053627294,16.193348092414194,10.736854323271851,-0.6164361579980341,-1.4781777171891994,0.4228498055034769,0.4979461103894633
0.5,0.5,0.0,10.506919911519903,12.858575118874613,8.155264704165193,16.175827980352235,10.734499344293226,-0.6187884341540941,-1.4113351584404472,0.4238360344619197,0.4964374804685793
0.9,0.09999999999999998,0.0,10.507308525206179,12.851012463853412,8.163604586558947,16.18699075538614,10.754752719827781,-0.5807875171212101,-1.5618659799813717,0.42295272791678445,0.4967887711120822
0.1,0.4,0.5,10.508283510270541,12.874151050658051,8.14241596988303,16.186224576539832,10.693418058613664,-0.7221603802334838,-1.145665443382169,0.4239618647648569,0.49805044680932115
0.2,0.2,0.6000000000000001,10.508714656169824,12.874376070172493,8.143053242167154,16.1952417386521,10.695044889175497,-0.7257343567845551,-1.1602703700639245,0.42347710143132317,0.49845494408092167
0.5,0.0,0.5,10.510894643680913,12.871176190008809,8.15061309735302,16.20564710964647,10.713885635729834,-0.6841594632006033,-1.2961962649230951,0.42239221062062526,0.4982902427397374
0.30000000000000004,0.09999999999999999,0.6,10.511235476666268,12.875696869788188,8.14677408354435,16.203421297546964,10.702175071035159,-0.7162341275263454,-1.1979030754491615,0.4227735654584534,0.4982675782884737
0.1,0.5,0.4,10.511560734467032,12.876614437726545,8.146507031207518,16.188117156523266,10.701147063879407,-0.7090861744241825,-1.1686932220856396,0.42346828986367374,0.497164439373152
0.1,0.30000000000000004,0.6,10.512461342945485,12.880035388501268,8.144887297389705,16.19676763183471,10.694594679245757,-0.7352345860427859,-1.1226376646786986,0.4232490889934545,0.4978192069110891
0.9,0.0,0.09999999999999998,10.512754736990523,12.858971211309571,8.166538262671477,16.200807871926504,10.75421835691835,-0.5938617229305118,-1.5388382012779014,0.42188516462799874,0.49666464786196485
0.30000000000000004,0.6,0.09999999999999998,10.518178315444342,12.876503838874743,8.159852792013941,16.193246914298165,10.731775873352849,-0.650863098479838,-1.3130419689665145,0.4222065782569775,0.49504192087005294
0.2,0.6000000000000001,0.19999999999999996,10.518281007943855,12.879752926387203,8.156809089500506,16.194954479352884,10.722335913987015,-0.6734375335473541,-1.2523814848778099,0.42225577889539506,0.4953770819737639
0.4,0.0,0.6,10.520307646941788,12.88452498320274,8.156090310680835,16.221291626652505,10.715971890695405,-0.7067338982681259,-1.2355357808343934,0.4211677047229449,0.49729494635690824
0.4,0.6,0.0,10.522396000985253,12.877508035699991,8.167283966270514,16.197320146567943,10.746069481597882,-0.628288663412315,-1.3737024530552162,0.42157408825239007,0.49406752872385395
0.0,0.4,0.6,10.522573464051778,12.892545329824936,8.152601598278618,16.20799623595115,10.700825284374313,-0.7447348153010099,-1.085004959293469,0.42207826335403736,0.4963333364176802
0.1,0.6000000000000001,0.29999999999999993,10.522772686418177,12.887778204137437,8.157767168698918,16.202441014028434,10.717762428455938,-0.6960119686148798,-1.1917210007891097,0.4217338286442897,0.49509051083577005
0.0,0.5,0.5,10.523044250645414,12.89186350184502,8.154224999445809,16.205636883160484,10.704998433917776,-0.7316606094917081,-1.1080327379969395,0.42197575052831465,0.4958449735306919
1.0,0.0,0.0,10.523211640411386,12.86655421558532,8.179869065237451,16.214039232342163,10.776402653081703,-0.5712872878629893,-1.599498685366603,0.4203553018975587,0.49478566758913994
0.1,0.2,0.7,10.524681596264001,12.894573605538312,8.15478958698969,16.21972207239452,10.704673989149569,-0.7483087918520943,-1.0996098859752315,0.4213932401379315,0.49655789201185585
0.2,0.1,0.7000000000000001,10.526061014761826,12.89485481719914,8.157267212324513,16.226364282893556,10.710470126126438,-0.73880856259386,-1.137242591360456,0.42086267769926755,0.49655921262668146
0.0,0.30000000000000004,0.7,10.529566576138077,12.901303374859406,8.157829777416746,16.222771153196028,10.705552594181396,-0.7578090211103123,-1.0619771805899987,0.4210103506179418,0.49574696627218184
0.0,0.6000000000000001,0.3999999999999999,10.531482723455419,12.900024681055406,8.162940765855433,16.21569851414682,10.718061646455311,-0.7185864036824061,-1.13106051670041,0.4206594271542053,0.4942060117943628
0.30000000000000004,0.0,0.7,10.533855609918428,12.902181081135843,8.165530138701012,16.242685895359,10.722930181289003,-0.7293083333356496,-1.1748752967456924,0.4194440158568737,0.4957852668152163
0.2,0.7000000000000001,0.09999999999999998,10.541083923614867,12.903727393991621,8.178440453238114,16.2259342185146,10.751321952624806,-0.660363327738052,-1.2754092635812802,0.41883766316567517,0.49158419755032795
0.1,0.7000000000000001,0.19999999999999996,10.542244425420883,12.908097123522587,8.17639172731918,16.229163233556612,10.743222921750508,-0.6829377628055772,-1.2147487794925798,0.4187557655301275,0.4917791313062903
0.30000000000000004,0.7,0.0,10.544338117293611,12.903608368340056,8.185067866247167,16.22847443629789,10.764268608479968,-0.6377888926705367,-1.3360697476699857,0.41834830386345084,0.4907558429336027
0.0,0.2,0.8,10.544975501887919,12.919260911725074,8.170690092050764,16.24992776912989,10.719168587648033,-0.7708832269196068,-1.0389494018865246,0.4188420126098447,0.49417616088275784
0.1,0.1,0.8,10.545208706461583,12.918403900713566,8.172013512209602,16.255035318337598,10.72363088502005,-0.7613829976613856,-1.0765821072717559,0.41848151551171814,0.49436521617462903
0.0,0.7000000000000001,0.29999999999999993,10.547752562180591,12.916975676103588,8.178529448257592,16.238158039727356,10.739982482658316,-0.705512197873104,-1.1540882954038802,0.41811611314771685,0.49135970871201207
0.2,0.0,0.8,10.551767927667957,12.924398450753962,8.179137404581953,16.26980723357088,10.73475103332032,-0.7518827684031649,-1.1142148126569869,0.417250266688105,0.4937914542275568
0.0,0.1,0.9,10.568478115912288,12.946046044233762,8.190910187590816,16.28940415802602,10.741639463211074,-0.7839574327289109,-1.0159216231830557,0.4156647802559413,0.4917208128221618
0.1,0.8,0.09999999999999998,10.570122304299078,12.937432060432895,8.20281254816526,16.268222718489806,10.77746585722201,-0.6698635569962756,-1.23777655819605,0.4145640916690082,0.4872057769822501
0.2,0.8,0.0,10.572267259248235,12.936279536048145,8.208254982448327,16.269235343046127,10.78906317940373,-0.6472891219287503,-1.2984370422847504,0.41420821497300236,0.4865150579950363
0.0,0.8,0.19999999999999996,10.572312996081639,12.942889449533212,8.201736542630066,16.27296412621955,10.770706860831163,-0.6924379920638017,-1.1771160741073503,0.41436442922747246,0.4872725440188191
0.1,0.0,0.9,10.573789468145868,12.950694131094544,8.196884805197193,16.302627058351373,10.751418408093572,-0.77445720347069,-1.0535543285682865,0.4146190980694161,0.49134659266294656
0.0,0.0,1.0,10.600011028519482,12.981005995785347,8.219016061253619,16.341111034862323,10.772909810648352,-0.7970316385382172,-0.9928938444795872,0.41158577198310115,0.4884858101844778
0.0,0.9,0.09999999999999998,10.605333292633265,12.977971599475076,8.232694985791456,16.320037778507174,10.810159717583288,-0.6793637862545006,-1.200143852810821,0.4094541447854557,0.4819372749259061
0.1,0.9,0.0,10.60630827052978,12.97571977052908,8.236896770530482,16.319530884310282,10.820407854803978,-0.6567893511869736,-1.2608043368995205,0.409220037092353,0.4813735593108783
0.0,1.0,0.0,10.646120353929504,13.021778184170664,8.270462523688344,16.379273226830968,10.858245909948906,-0.6662895804451989,-1.2231716315142915,0.4034633276535687,0.4753745637369201
